x,y,z,yaw,velocity,change_flag
573.4211,-5147.9680,0.0000,0.2834,0,0
574.6168,-5147.6067,0.0000,0.3030,5.2641,0
575.5734,-5147.2999,0.0000,0.3112,6.6985,0
576.5556,-5146.9820,0.0000,0.3143,7.8969,0
577.9734,-5146.5328,0.0000,0.3164,9.3665,0
578.9556,-5146.2039,0.0000,0.3170,10.2767,0
579.9464,-5145.8861,0.0000,0.3168,11.1522,0
580.9201,-5145.5683,0.0000,0.3141,11.8923,0
582.3977,-5145.0860,0.0000,0.3095,13.0013,0
583.3884,-5144.7793,0.0000,0.3068,13.6860,0
584.3535,-5144.4726,0.0000,0.3041,14.3223,0
585.3613,-5144.1659,0.0000,0.3009,14.9665,0
586.3349,-5143.8592,0.0000,0.2982,15.5585,0
587.3000,-5143.5635,0.0000,0.2951,16.0722,0
588.2650,-5143.2789,0.0000,0.2930,16.6078,0
589.7425,-5142.8299,0.0000,0.2903,17.3188,0
590.7246,-5142.5454,0.0000,0.2890,17.7860,0
591.6896,-5142.2608,0.0000,0.2876,18.2248,0
592.6632,-5141.9763,0.0000,0.2869,18.5806,0
593.6624,-5141.6807,0.0000,0.2857,18.9626,0
594.6359,-5141.3962,0.0000,0.2847,19.3289,0
595.6265,-5141.1117,0.0000,0.2838,19.6743,0
597.5480,-5140.5647,0.0000,0.2817,20.3608,0
598.5300,-5140.2801,0.0000,0.2803,20.6399,0
599.5292,-5139.9957,0.0000,0.2796,20.9326,0
600.5369,-5139.7113,0.0000,0.2784,21.1861,0
601.5701,-5139.4270,0.0000,0.2778,21.5060,0
602.6034,-5139.1315,0.0000,0.2773,21.7505,0
603.6623,-5138.8362,0.0000,0.2769,22.0523,0
604.7213,-5138.5298,0.0000,0.2765,22.3330,0
607.1464,-5137.8628,0.0000,0.2761,22.9698,0
608.1285,-5137.5894,0.0000,0.2761,23.1751,0
609.1276,-5137.3049,0.0000,0.2763,23.4286,0
610.1951,-5136.9986,0.0000,0.2763,23.6867,0
611.2112,-5136.7253,0.0000,0.2761,23.8995,0
612.1762,-5136.4518,0.0000,0.2757,24.1243,0
613.2095,-5136.1564,0.0000,0.2755,24.3658,0
614.2598,-5135.8721,0.0000,0.2752,24.5770,0
615.2504,-5135.5876,0.0000,0.2750,24.7929,0
617.5219,-5134.9644,0.0000,0.2748,25.2502,0
618.6064,-5134.6581,0.0000,0.2748,25.4343,0
619.6995,-5134.3518,0.0000,0.2748,25.6561,0
620.8011,-5134.0456,0.0000,0.2746,25.8554,0
621.7745,-5133.7832,0.0000,0.2748,26.0153,0
622.7480,-5133.5097,0.0000,0.2748,26.2057,0
623.7300,-5133.2474,0.0000,0.2752,26.3323,0
624.7206,-5132.9629,0.0000,0.2753,26.5117,0
625.7197,-5132.6896,0.0000,0.2757,26.6793,0
626.7189,-5132.4051,0.0000,0.2761,26.8407,0
629.1014,-5131.7379,0.0000,0.2773,27.2436,0
630.1261,-5131.4535,0.0000,0.2778,27.3960,0
631.2192,-5131.1473,0.0000,0.2778,27.5197,0
632.1842,-5130.8738,0.0000,0.2784,27.6661,0
633.2175,-5130.5784,0.0000,0.2790,27.8427,0
634.1910,-5130.3049,0.0000,0.2796,27.9679,0
635.1645,-5130.0314,0.0000,0.2800,28.0978,0
636.2063,-5129.7361,0.0000,0.2801,28.1853,0
637.1883,-5129.4626,0.0000,0.2803,28.3000,0
638.1704,-5129.1781,0.0000,0.2800,28.4192,0
641.2191,-5128.3138,0.0000,0.2777,28.7768,0
642.3035,-5128.0186,0.0000,0.2763,28.8915,0
643.3881,-5127.7123,0.0000,0.2742,29.0381,0
644.4726,-5127.4171,0.0000,0.2723,29.1832,0
645.5656,-5127.1109,0.0000,0.2702,29.2849,0
646.6671,-5126.8157,0.0000,0.2681,29.3637,0
647.7687,-5126.5095,0.0000,0.2663,29.4755,0
648.8788,-5126.2144,0.0000,0.2648,29.5959,0
649.9889,-5125.9193,0.0000,0.2644,29.7212,0
651.0989,-5125.6242,0.0000,0.2646,29.7877,0
654.1473,-5124.8154,0.0000,0.2677,29.9707,0
655.1891,-5124.5311,0.0000,0.2692,30.0353,0
656.2309,-5124.2469,0.0000,0.2706,30.0770,0
657.3581,-5123.9296,0.0000,0.2721,30.1129,0
658.4084,-5123.6454,0.0000,0.2738,30.1853,0
659.4588,-5123.3611,0.0000,0.2750,30.2107,0
660.5945,-5123.0439,0.0000,0.2761,30.3132,0
661.6449,-5122.7486,0.0000,0.2773,30.3704,0
662.7038,-5122.4533,0.0000,0.2778,30.4323,0
663.6773,-5122.1798,0.0000,0.2778,30.4867,0
667.0931,-5121.2172,0.0000,0.2777,30.5636,0
668.1605,-5120.9219,0.0000,0.2771,30.6451,0
669.1340,-5120.6484,0.0000,0.2767,30.6375,0
670.1160,-5120.3750,0.0000,0.2761,30.6873,0
671.1066,-5120.1016,0.0000,0.2752,30.7524,0
672.1741,-5119.7952,0.0000,0.2740,30.7570,0
673.2415,-5119.4999,0.0000,0.2725,30.8251,0
674.2320,-5119.2376,0.0000,0.2706,30.8692,0
675.2226,-5118.9642,0.0000,0.2688,30.9180,0
676.2131,-5118.6908,0.0000,0.2673,30.9564,0
677.2122,-5118.4286,0.0000,0.2652,30.9632,0
680.3715,-5117.5981,0.0000,0.2592,31.1116,0
681.4645,-5117.3140,0.0000,0.2577,31.1698,0
682.5489,-5117.0299,0.0000,0.2568,31.2229,0
683.5565,-5116.7676,0.0000,0.2558,31.2358,0
684.6494,-5116.4947,0.0000,0.2548,31.2890,0
685.7424,-5116.2106,0.0000,0.2539,31.3260,0
686.8353,-5115.9376,0.0000,0.2520,31.3922,0
687.8514,-5115.6754,0.0000,0.2498,31.4132,0
688.9443,-5115.4024,0.0000,0.2479,31.4288,0
690.0458,-5115.1295,0.0000,0.2460,31.4793,0
691.0618,-5114.8784,0.0000,0.2443,31.5059,0
694.4600,-5114.0489,0.0000,0.2387,31.5918,0
695.5699,-5113.7870,0.0000,0.2370,31.6058,0
696.6799,-5113.5252,0.0000,0.2351,31.6489,0
697.7897,-5113.2745,0.0000,0.2334,31.6576,0
698.8143,-5113.0346,0.0000,0.2320,31.6551,0
699.9242,-5112.7728,0.0000,0.2311,31.6671,0
700.9572,-5112.5439,0.0000,0.2303,31.6500,0
701.9818,-5112.3040,0.0000,0.2297,31.6432,0
702.9977,-5112.0751,0.0000,0.2293,31.6111,0
704.0223,-5111.8351,0.0000,0.2288,31.5576,0
705.0468,-5111.5951,0.0000,0.2284,31.5312,0
706.0713,-5111.3663,0.0000,0.2276,31.4809,0
709.1278,-5110.6685,0.0000,0.2268,31.3920,0
710.2377,-5110.4178,0.0000,0.2274,31.3837,0
711.3305,-5110.1670,0.0000,0.2286,31.3105,0
712.5172,-5109.8944,0.0000,0.2299,31.2827,0
713.6186,-5109.6437,0.0000,0.2312,31.2663,0
714.7114,-5109.3929,0.0000,0.2322,31.2021,0
715.8896,-5109.1203,0.0000,0.2335,31.1695,0
716.9825,-5108.8584,0.0000,0.2347,31.1370,0
718.0838,-5108.6076,0.0000,0.2355,31.1263,0
719.2620,-5108.3350,0.0000,0.2366,31.1436,0
720.3549,-5108.0842,0.0000,0.2380,31.1324,0
722.9589,-5107.4623,0.0000,0.2422,31.0241,0
724.0433,-5107.2004,0.0000,0.2441,30.9944,0
725.0422,-5106.9603,0.0000,0.2460,30.9570,0
726.1266,-5106.6873,0.0000,0.2481,30.8985,0
727.2024,-5106.4253,0.0000,0.2500,30.8882,0
728.1929,-5106.1741,0.0000,0.2521,30.7979,0
729.2687,-5105.9011,0.0000,0.2543,30.7399,0
730.3446,-5105.6280,0.0000,0.2564,30.6900,0
731.3351,-5105.3768,0.0000,0.2585,30.6050,0
732.3170,-5105.1145,0.0000,0.2602,30.4647,0
733.2990,-5104.8632,0.0000,0.2623,30.3189,0
735.8692,-5104.1745,0.0000,0.2675,29.6903,0
736.9793,-5103.8794,0.0000,0.2694,29.3696,0
738.0723,-5103.5731,0.0000,0.2715,28.9949,0
739.1483,-5103.2779,0.0000,0.2732,28.6656,0
740.1388,-5103.0045,0.0000,0.2750,28.3605,0
741.1977,-5102.7203,0.0000,0.2767,28.0013,0
742.1626,-5102.4467,0.0000,0.2782,27.6737,0
743.2643,-5102.1294,0.0000,0.2798,27.3145,0
744.2804,-5101.8450,0.0000,0.2813,26.9645,0
745.3479,-5101.5386,0.0000,0.2821,26.5751,0
748.3197,-5100.6962,0.0000,0.2834,25.1355,0
749.3103,-5100.4117,0.0000,0.2834,24.4987,0
750.3436,-5100.1052,0.0000,0.2832,23.8004,0
751.4025,-5099.8098,0.0000,0.2824,23.0393,0
752.3760,-5099.5364,0.0000,0.2821,22.2531,0
753.4178,-5099.2410,0.0000,0.2805,21.2736,0
754.4169,-5098.9565,0.0000,0.2771,20.3305,0
756.9701,-5098.2788,0.0000,0.2433,17.7994,0
757.9946,-5098.0389,0.0000,0.2159,16.7663,0
758.9763,-5097.8431,0.0000,0.1812,15.9388,0
759.9920,-5097.6808,0.0000,0.1333,15.0152,0
760.9904,-5097.5739,0.0000,0.0738,14.1028,0
762.0056,-5097.5226,0.0000,0.0046,13.0413,0
763.4297,-5097.6061,0.0000,-0.1168,11.4057,0
764.4526,-5097.7768,0.0000,-0.2351,10.1483,0
765.4237,-5098.0805,0.0000,-0.3716,9.2263,0
766.3260,-5098.5171,0.0000,-0.5459,8.2978,0
767.2698,-5099.2535,0.0000,-0.7873,7.1476,0
767.9147,-5100.0553,0.0000,-1.0255,6.6097,0
768.3544,-5100.9895,0.0000,-1.2600,6.2296,0
768.5721,-5101.9893,0.0000,-1.4981,6.0028,0
768.5424,-5102.9993,0.0000,-1.7315,5.8699,0
768.2739,-5103.9749,0.0000,-1.9629,5.9166,0
767.7755,-5104.8830,0.0000,-2.2034,5.8800,0
767.0900,-5105.6460,0.0000,-2.4310,5.9788,0
766.0122,-5106.3964,0.0000,-2.6478,6.3428,0
765.1062,-5106.8366,0.0000,-2.7497,6.7819,0
764.1323,-5107.2100,0.0000,-2.7869,7.8939,0
762.7825,-5107.7150,0.0000,-2.7853,9.5333,0
761.8087,-5108.0773,0.0000,-2.7853,10.4720,0
760.8349,-5108.4173,0.0000,-2.7941,11.5526,0
759.8696,-5108.7685,0.0000,-2.8041,12.5368,0
758.8874,-5109.0975,0.0000,-2.8114,13.2721,0
757.2902,-5109.6237,0.0000,-2.8210,14.4179,0
756.2567,-5109.9635,0.0000,-2.8248,15.0468,0
755.2147,-5110.2922,0.0000,-2.8269,15.7488,0
754.1813,-5110.6209,0.0000,-2.8287,16.3292,0
753.1991,-5110.9277,0.0000,-2.8289,16.8295,0
752.2340,-5111.2345,0.0000,-2.8277,17.3020,0
750.1329,-5111.9140,0.0000,-2.8252,18.3091,0
749.1423,-5112.2207,0.0000,-2.8243,18.7155,0
748.1259,-5112.5495,0.0000,-2.8229,19.1637,0
747.0924,-5112.8893,0.0000,-2.8219,19.5770,0
746.0419,-5113.2291,0.0000,-2.8214,19.9383,0
745.0682,-5113.5359,0.0000,-2.8231,20.3831,0
744.0774,-5113.8648,0.0000,-2.8262,20.7690,0
743.0696,-5114.1825,0.0000,-2.8292,21.1204,0
741.1139,-5114.7849,0.0000,-2.8356,21.8521,0
740.1147,-5115.0916,0.0000,-2.8373,22.1174,0
739.0386,-5115.4201,0.0000,-2.8384,22.4550,0
738.0650,-5115.7047,0.0000,-2.8394,22.7538,0
737.0231,-5116.0223,0.0000,-2.8400,23.0737,0
736.0239,-5116.3290,0.0000,-2.8405,23.3766,0
735.0332,-5116.6357,0.0000,-2.8407,23.5790,0
733.9656,-5116.9754,0.0000,-2.8413,23.8332,0
732.9322,-5117.2819,0.0000,-2.8417,24.1570,0
730.4385,-5118.0375,0.0000,-2.8415,24.8079,0
729.3709,-5118.3660,0.0000,-2.8409,25.0680,0
728.2949,-5118.6946,0.0000,-2.8400,25.3846,0
727.2786,-5119.0012,0.0000,-2.8388,25.5989,0
726.2452,-5119.3188,0.0000,-2.8377,25.8663,0
725.2716,-5119.6145,0.0000,-2.8363,26.2373,0
724.2809,-5119.9212,0.0000,-2.8350,26.9006,0
723.2646,-5120.2389,0.0000,-2.8338,27.6743,0
722.2141,-5120.5675,0.0000,-2.8325,28.5080,0
719.7031,-5121.3564,0.0000,-2.8306,30.4354,0
718.6441,-5121.6850,0.0000,-2.8308,31.1441,0
717.5509,-5122.0246,0.0000,-2.8313,31.8986,0
716.5260,-5122.3533,0.0000,-2.8317,32.5587,0
715.5609,-5122.6601,0.0000,-2.8317,33.1250,0
714.5873,-5122.9558,0.0000,-2.8323,33.6950,0
713.5965,-5123.2736,0.0000,-2.8336,34.1918,0
712.5973,-5123.5914,0.0000,-2.8348,34.6405,0
711.5809,-5123.9090,0.0000,-2.8365,35.1069,0
710.5475,-5124.2267,0.0000,-2.8377,35.5641,0
709.5056,-5124.5443,0.0000,-2.8394,36.0051,0
708.4381,-5124.8728,0.0000,-2.8409,36.4732,0
704.4669,-5126.0663,0.0000,-2.8482,38.0639,0
703.3482,-5126.3947,0.0000,-2.8503,38.4416,0
702.3148,-5126.7012,0.0000,-2.8526,38.6258,0
701.2815,-5126.9966,0.0000,-2.8549,38.6480,0
700.2482,-5127.2920,0.0000,-2.8580,38.6424,0
699.2149,-5127.5875,0.0000,-2.8601,38.5634,0
698.1902,-5127.8718,0.0000,-2.8626,38.4817,0
697.1655,-5128.1562,0.0000,-2.8645,38.4019,0
696.1322,-5128.4516,0.0000,-2.8670,38.2828,0
695.1075,-5128.7249,0.0000,-2.8691,38.1473,0
694.0913,-5129.0093,0.0000,-2.8708,37.9309,0
693.0751,-5129.2826,0.0000,-2.8720,37.7275,0
692.0590,-5129.5559,0.0000,-2.8731,37.5665,0
688.2676,-5130.5725,0.0000,-2.8770,36.7225,0
687.1917,-5130.8566,0.0000,-2.8777,36.4923,0
686.1158,-5131.1408,0.0000,-2.8783,36.2475,0
684.9460,-5131.4467,0.0000,-2.8791,36.0039,0
683.8872,-5131.7309,0.0000,-2.8797,35.7746,0
682.8368,-5132.0152,0.0000,-2.8802,35.5318,0
681.7866,-5132.2883,0.0000,-2.8806,35.2968,0
680.7448,-5132.5615,0.0000,-2.8808,35.0484,0
679.7117,-5132.8236,0.0000,-2.8810,34.8007,0
678.6870,-5133.0969,0.0000,-2.8812,34.5446,0
677.6709,-5133.3591,0.0000,-2.8816,34.3103,0
676.6633,-5133.6324,0.0000,-2.8818,34.0230,0
675.5703,-5133.9165,0.0000,-2.8820,33.7640,0
674.5713,-5134.1788,0.0000,-2.8820,33.5113,0
671.2753,-5135.0420,0.0000,-2.8822,32.7081,0
670.2250,-5135.3152,0.0000,-2.8831,32.4442,0
669.0979,-5135.6102,0.0000,-2.8829,32.1668,0
668.0647,-5135.8723,0.0000,-2.8829,31.8822,0
667.0400,-5136.1456,0.0000,-2.8829,31.6027,0
666.0239,-5136.4078,0.0000,-2.8831,31.3387,0
665.0163,-5136.6700,0.0000,-2.8833,31.0776,0
664.0173,-5136.9323,0.0000,-2.8833,30.8236,0
663.0268,-5137.1835,0.0000,-2.8833,30.5922,0
662.0449,-5137.4347,0.0000,-2.8835,30.3495,0
659.6198,-5138.0684,0.0000,-2.8839,29.7125,0
658.5098,-5138.3635,0.0000,-2.8839,29.3793,0
657.4851,-5138.6257,0.0000,-2.8839,29.1237,0
656.4690,-5138.8879,0.0000,-2.8841,28.8570,0
655.3846,-5139.1609,0.0000,-2.8843,28.5746,0
654.3941,-5139.4232,0.0000,-2.8843,28.3078,0
653.4036,-5139.6744,0.0000,-2.8845,28.0120,0
652.3534,-5139.9475,0.0000,-2.8847,27.7000,0
651.2433,-5140.2315,0.0000,-2.8848,27.3645,0
650.2187,-5140.4937,0.0000,-2.8848,27.0603,0
647.5546,-5141.1820,0.0000,-2.8854,26.2797,0
646.5641,-5141.4331,0.0000,-2.8858,25.9732,0
645.5224,-5141.7063,0.0000,-2.8860,25.6400,0
644.4295,-5141.9793,0.0000,-2.8862,25.2749,0
643.4134,-5142.2415,0.0000,-2.8864,24.9388,0
642.3546,-5142.5146,0.0000,-2.8868,24.5312,0
641.3641,-5142.7658,0.0000,-2.8868,24.2058,0
640.3309,-5143.0279,0.0000,-2.8871,23.8439,0
639.3148,-5143.2901,0.0000,-2.8871,23.4972,0
638.3073,-5143.5412,0.0000,-2.8873,23.1242,0
636.0958,-5144.1093,0.0000,-2.8875,22.3912,0
635.0199,-5144.3823,0.0000,-2.8877,21.9863,0
634.0209,-5144.6335,0.0000,-2.8875,21.5999,0
632.9877,-5144.8956,0.0000,-2.8875,21.2001,0
631.9716,-5145.1578,0.0000,-2.8873,20.7874,0
630.9726,-5145.4089,0.0000,-2.8873,20.3769,0
629.9992,-5145.6602,0.0000,-2.8873,19.9559,0
628.9831,-5145.9113,0.0000,-2.8875,19.5533,0
626.5667,-5146.5340,0.0000,-2.8875,18.6021,0
625.5762,-5146.7852,0.0000,-2.8870,18.2212,0
624.6028,-5147.0364,0.0000,-2.8866,17.8723,0
623.5611,-5147.2985,0.0000,-2.8864,17.5284,0
622.5791,-5147.5608,0.0000,-2.8862,17.2063,0
621.5630,-5147.8119,0.0000,-2.8860,16.9262,0
620.5213,-5148.0740,0.0000,-2.8858,16.6359,0
618.6684,-5148.5547,0.0000,-2.8852,16.1270,0
617.6352,-5148.8168,0.0000,-2.8850,15.8553,0
616.6618,-5149.0681,0.0000,-2.8848,15.6075,0
615.6628,-5149.3303,0.0000,-2.8848,15.3464,0
614.6381,-5149.5925,0.0000,-2.8847,15.2480,0
612.6059,-5150.1169,0.0000,-2.8843,15.4879,0
611.6154,-5150.3791,0.0000,-2.8841,15.5757,0
610.5993,-5150.6413,0.0000,-2.8839,15.6959,0
609.6259,-5150.8926,0.0000,-2.8835,15.8502,0
608.5927,-5151.1658,0.0000,-2.8833,15.9783,0
607.6107,-5151.4170,0.0000,-2.8831,16.0851,0
606.5690,-5151.6902,0.0000,-2.8827,16.1998,0
605.0746,-5152.0836,0.0000,-2.8820,16.3385,0
604.0244,-5152.3567,0.0000,-2.8816,16.4319,0
603.0510,-5152.6080,0.0000,-2.8810,16.5041,0
602.0775,-5152.8704,0.0000,-2.8804,16.5600,0
601.0443,-5153.1325,0.0000,-2.8799,16.6428,0
600.0196,-5153.4057,0.0000,-2.8791,16.7093,0
599.0291,-5153.6680,0.0000,-2.8785,16.7787,0
597.6287,-5154.0396,0.0000,-2.8776,16.8807,0
596.6297,-5154.3019,0.0000,-2.8772,16.8489,0
595.6391,-5154.5641,0.0000,-2.8766,16.6832,0
594.6059,-5154.8374,0.0000,-2.8760,16.4568,0
593.5641,-5155.1216,0.0000,-2.8754,16.1214,0
592.5736,-5155.3839,0.0000,-2.8751,15.8391,0
590.7291,-5155.8869,0.0000,-2.8747,15.3785,0
589.7557,-5156.1492,0.0000,-2.8733,15.1280,0
588.7053,-5156.4335,0.0000,-2.8728,14.9256,0
587.6721,-5156.7067,0.0000,-2.8724,14.6857,0
586.6986,-5156.9690,0.0000,-2.8718,14.3070,0
585.7337,-5157.2425,0.0000,-2.8714,13.6683,0
584.3845,-5157.6032,0.0000,-2.8708,12.6074,0
583.3854,-5157.8766,0.0000,-2.8707,11.4906,0
582.3948,-5158.1500,0.0000,-2.8701,10.0886,0
581.4128,-5158.4123,0.0000,-2.8697,8.2173,0
580.4393,-5158.6857,0.0000,-2.8689,5.6186,0
