x,y,z,yaw,velocity,change_flag
577.6667,-5160.8608,0.0000,0.2788,0,0
578.6233,-5160.5429,0.0000,0.3310,3.6413,0
579.5800,-5160.2250,0.0000,0.3145,5.1733,0
580.5365,-5159.9293,0.0000,0.2939,6.4643,0
581.5271,-5159.6448,0.0000,0.2750,7.7522,0
582.5348,-5159.3715,0.0000,0.2612,8.8235,0
583.6278,-5159.0763,0.0000,0.2592,9.7584,0
584.6097,-5158.8251,0.0000,0.2541,10.5469,0
585.5832,-5158.5738,0.0000,0.2539,11.2828,0
586.5651,-5158.3226,0.0000,0.2541,12.0712,0
587.5385,-5158.0713,0.0000,0.2544,12.8440,0
588.8621,-5157.7216,0.0000,0.2548,13.7952,0
589.8525,-5157.4704,0.0000,0.2552,14.5015,0
590.8942,-5157.2084,0.0000,0.2560,15.1999,0
591.9360,-5156.9352,0.0000,0.2571,15.8452,0
592.9350,-5156.6729,0.0000,0.2581,16.4184,0
593.9256,-5156.4107,0.0000,0.2592,16.9570,0
596.4275,-5155.7550,0.0000,0.2614,18.1778,0
597.4180,-5155.4817,0.0000,0.2621,18.6393,0
598.4256,-5155.2194,0.0000,0.2631,19.0526,0
599.4588,-5154.9462,0.0000,0.2638,19.4467,0
600.5177,-5154.6620,0.0000,0.2648,19.8398,0
601.5936,-5154.3668,0.0000,0.2656,20.2368,0
602.5756,-5154.1045,0.0000,0.2663,20.5837,0
604.5994,-5153.5579,0.0000,0.2677,21.2611,0
605.6327,-5153.2735,0.0000,0.2686,21.5868,0
606.6830,-5152.9893,0.0000,0.2694,21.9279,0
607.7504,-5152.6940,0.0000,0.2702,22.2672,0
608.8264,-5152.3988,0.0000,0.2711,22.5342,0
609.8596,-5152.1145,0.0000,0.2717,22.8254,0
610.8417,-5151.8411,0.0000,0.2725,23.0877,0
611.8323,-5151.5677,0.0000,0.2732,23.3472,0
612.8997,-5151.2724,0.0000,0.2734,23.6129,0
615.6579,-5150.5068,0.0000,0.2736,24.3086,0
616.6485,-5150.2335,0.0000,0.2730,24.5909,0
617.6989,-5149.9381,0.0000,0.2721,24.7766,0
618.6979,-5149.6648,0.0000,0.2709,25.0136,0
619.7739,-5149.3806,0.0000,0.2696,25.2253,0
620.7901,-5149.0962,0.0000,0.2686,25.4218,0
621.8831,-5148.8011,0.0000,0.2673,25.6376,0
622.9248,-5148.5279,0.0000,0.2663,25.8447,0
625.7940,-5147.7517,0.0000,0.2642,26.3988,0
626.8614,-5147.4675,0.0000,0.2633,26.6002,0
627.8604,-5147.2053,0.0000,0.2623,26.8046,0
628.8680,-5146.9319,0.0000,0.2614,26.9723,0
629.8927,-5146.6698,0.0000,0.2604,27.1690,0
630.9174,-5146.3965,0.0000,0.2592,27.3601,0
631.9505,-5146.1344,0.0000,0.2581,27.5250,0
633.1375,-5145.8174,0.0000,0.2571,27.7134,0
634.2560,-5145.5335,0.0000,0.2568,27.9131,0
635.2294,-5145.2822,0.0000,0.2573,28.0495,0
637.8082,-5144.6047,0.0000,0.2596,28.4740,0
638.8072,-5144.3424,0.0000,0.2606,28.6424,0
639.8063,-5144.0802,0.0000,0.2614,28.7550,0
640.8907,-5143.7961,0.0000,0.2621,28.9128,0
641.8983,-5143.5339,0.0000,0.2629,29.0863,0
642.9144,-5143.2606,0.0000,0.2633,29.2462,0
644.0160,-5142.9654,0.0000,0.2638,29.3666,0
645.0407,-5142.6922,0.0000,0.2640,29.5217,0
646.0654,-5142.4189,0.0000,0.2644,29.6355,0
647.1840,-5142.1239,0.0000,0.2650,29.7963,0
648.2257,-5141.8396,0.0000,0.2652,29.9370,0
650.6423,-5141.1947,0.0000,0.2663,30.2762,0
651.6158,-5140.9323,0.0000,0.2667,30.4236,0
652.5977,-5140.6700,0.0000,0.2671,30.5113,0
653.5712,-5140.4076,0.0000,0.2673,30.6048,0
654.5617,-5140.1453,0.0000,0.2675,30.7040,0
655.5438,-5139.8719,0.0000,0.2679,30.7869,0
656.5343,-5139.6096,0.0000,0.2683,30.8987,0
657.5334,-5139.3363,0.0000,0.2683,31.0404,0
658.5324,-5139.0740,0.0000,0.2683,31.1328,0
659.5315,-5138.8006,0.0000,0.2683,31.2610,0
660.5391,-5138.5273,0.0000,0.2679,31.3227,0
663.7413,-5137.6637,0.0000,0.2667,31.6358,0
664.8429,-5137.3574,0.0000,0.2669,31.7620,0
665.8676,-5137.0842,0.0000,0.2671,31.8632,0
666.9776,-5136.7891,0.0000,0.2673,31.9702,0
668.0878,-5136.4829,0.0000,0.2673,32.1301,0
669.2149,-5136.1878,0.0000,0.2675,32.2226,0
670.2481,-5135.9035,0.0000,0.2681,32.3007,0
671.3753,-5135.5974,0.0000,0.2690,32.4511,0
672.5025,-5135.2913,0.0000,0.2698,32.5958,0
673.6468,-5134.9741,0.0000,0.2709,32.7176,0
674.6886,-5134.6898,0.0000,0.2719,32.7611,0
675.6535,-5134.4163,0.0000,0.2729,32.8775,0
676.6270,-5134.1539,0.0000,0.2738,32.9829,0
679.8122,-5133.2680,0.0000,0.2771,33.3041,0
680.7857,-5132.9946,0.0000,0.2782,33.3629,0
681.7678,-5132.7100,0.0000,0.2792,33.4294,0
682.7498,-5132.4366,0.0000,0.2801,33.5124,0
683.7319,-5132.1521,0.0000,0.2811,33.6090,0
684.8164,-5131.8458,0.0000,0.2824,33.6938,0
685.8924,-5131.5394,0.0000,0.2834,33.7935,0
686.9684,-5131.2331,0.0000,0.2847,33.8542,0
688.0530,-5130.9157,0.0000,0.2859,33.9131,0
689.1460,-5130.6094,0.0000,0.2869,34.0191,0
692.0411,-5129.7556,0.0000,0.2905,34.2134,0
693.0488,-5129.4600,0.0000,0.2922,34.2945,0
694.0480,-5129.1645,0.0000,0.2941,34.3260,0
695.0472,-5128.8578,0.0000,0.2961,34.4054,0
696.1489,-5128.5294,0.0000,0.2980,34.5014,0
697.1566,-5128.2227,0.0000,0.2997,34.5758,0
698.1644,-5127.9161,0.0000,0.3012,34.6583,0
699.1807,-5127.5984,0.0000,0.3032,34.7160,0
700.1970,-5127.2918,0.0000,0.3047,34.7154,0
701.2902,-5126.9523,0.0000,0.3064,34.6415,0
702.3920,-5126.6016,0.0000,0.3078,34.4987,0
703.4852,-5126.2620,0.0000,0.3097,34.3379,0
704.5698,-5125.9224,0.0000,0.3114,34.1253,0
705.6460,-5125.5717,0.0000,0.3129,33.9304,0
709.1819,-5124.4430,0.0000,0.3152,32.9986,0
710.2239,-5124.1032,0.0000,0.3156,32.6896,0
711.3428,-5123.7527,0.0000,0.3162,32.3869,0
712.3592,-5123.4128,0.0000,0.3162,32.0531,0
713.4524,-5123.0621,0.0000,0.3162,31.7232,0
714.5371,-5122.7114,0.0000,0.3160,31.4141,0
715.5279,-5122.3936,0.0000,0.3160,31.1223,0
716.5955,-5122.0539,0.0000,0.3162,30.7924,0
717.6460,-5121.7142,0.0000,0.3162,30.4865,0
718.6880,-5121.3744,0.0000,0.3158,30.1737,0
721.3528,-5120.5085,0.0000,0.3147,29.3124,0
722.3521,-5120.1907,0.0000,0.3139,28.9929,0
723.3428,-5119.8729,0.0000,0.3131,28.6839,0
724.4019,-5119.5332,0.0000,0.3125,28.3122,0
725.3670,-5119.2264,0.0000,0.3116,27.9824,0
726.4004,-5118.8977,0.0000,0.3104,27.6492,0
727.4168,-5118.5800,0.0000,0.3091,27.2779,0
728.4246,-5118.2623,0.0000,0.3078,26.9624,0
729.4153,-5117.9445,0.0000,0.3060,26.6188,0
730.3890,-5117.6377,0.0000,0.3043,26.2477,0
733.2585,-5116.7616,0.0000,0.3003,25.2070,0
734.3175,-5116.4329,0.0000,0.2987,24.7877,0
735.2997,-5116.1373,0.0000,0.2974,24.4306,0
736.3245,-5115.8196,0.0000,0.2959,24.0074,0
737.3408,-5115.5241,0.0000,0.2943,23.6305,0
738.3912,-5115.2066,0.0000,0.2926,23.1727,0
739.3733,-5114.9220,0.0000,0.2913,22.7602,0
740.4493,-5114.6046,0.0000,0.2899,22.2951,0
743.1138,-5113.8164,0.0000,0.2874,21.1294,0
744.1129,-5113.5319,0.0000,0.2870,20.6663,0
745.0950,-5113.2474,0.0000,0.2878,20.2075,0
746.1625,-5112.9299,0.0000,0.2890,19.7370,0
747.1958,-5112.6234,0.0000,0.2901,19.2497,0
748.2121,-5112.3279,0.0000,0.2915,18.8183,0
749.2540,-5112.0214,0.0000,0.2932,18.3553,0
750.2190,-5111.7257,0.0000,0.2949,17.9334,0
751.8331,-5111.2439,0.0000,0.2997,16.8679,0
752.8494,-5110.9373,0.0000,0.3032,16.2065,0
753.8572,-5110.6196,0.0000,0.3087,15.4097,0
754.8479,-5110.3018,0.0000,0.3187,14.5431,0
755.8131,-5109.9839,0.0000,0.3334,13.6263,0
756.8039,-5109.6328,0.0000,0.3543,12.5720,0
757.9146,-5109.2045,0.0000,0.3954,11.3193,0
758.8801,-5108.7867,0.0000,0.4435,10.2962,0
759.7947,-5108.3243,0.0000,0.5164,9.1368,0
760.6755,-5107.7729,0.0000,0.6178,8.0302,0
761.5485,-5107.0551,0.0000,0.7833,6.9844,0
762.2083,-5106.3030,0.0000,0.9547,6.2430,0
762.8701,-5105.0848,0.0000,1.2510,4.4615,0
763.0960,-5104.0868,0.0000,1.4809,4.1007,0
763.1087,-5103.0768,0.0000,1.6598,3.9983,0
762.9507,-5102.0772,0.0000,1.8383,4.1914,0
762.5964,-5101.1323,0.0000,2.0538,4.4514,0
762.0284,-5100.2753,0.0000,2.2920,5.2611,0
761.1106,-5099.4613,0.0000,2.5790,5.9575,0
760.1827,-5099.0024,0.0000,2.8170,6.5906,0
759.1688,-5098.7540,0.0000,3.0254,7.2727,0
758.0175,-5098.7049,0.0000,-3.0856,8.1724,0
757.0021,-5098.7895,0.0000,-2.9872,8.7946,0
755.9778,-5098.9740,0.0000,-2.9234,9.4950,0
754.9447,-5099.2250,0.0000,-2.8862,10.2969,0
753.8261,-5099.5090,0.0000,-2.8743,11.0926,0
752.8356,-5099.7824,0.0000,-2.8718,11.9299,0
751.8365,-5100.0558,0.0000,-2.8728,12.6545,0
750.8460,-5100.3181,0.0000,-2.8741,13.2461,0
749.8469,-5100.5915,0.0000,-2.8749,13.8214,0
748.0964,-5101.0616,0.0000,-2.8764,14.7647,0
747.1059,-5101.3239,0.0000,-2.8774,15.3217,0
746.0897,-5101.5972,0.0000,-2.8781,15.8304,0
745.0906,-5101.8705,0.0000,-2.8785,16.2487,0
744.1172,-5102.1218,0.0000,-2.8789,16.6322,0
743.0925,-5102.4062,0.0000,-2.8799,17.0957,0
742.0679,-5102.6683,0.0000,-2.8810,17.4361,0
740.4028,-5103.1166,0.0000,-2.8831,18.1530,0
739.4037,-5103.3788,0.0000,-2.8843,18.4991,0
738.3962,-5103.6411,0.0000,-2.8856,18.8290,0
737.3630,-5103.9143,0.0000,-2.8868,19.1836,0
736.3127,-5104.1764,0.0000,-2.8881,19.4789,0
735.2369,-5104.4494,0.0000,-2.8893,19.8436,0
734.2635,-5104.7007,0.0000,-2.8898,20.1258,0
733.2730,-5104.9519,0.0000,-2.8906,20.4349,0
731.0189,-5105.5198,0.0000,-2.8925,21.0424,0
729.9857,-5105.7819,0.0000,-2.8931,21.3357,0
728.9440,-5106.0551,0.0000,-2.8937,21.6206,0
727.8767,-5106.3171,0.0000,-2.8940,21.9110,0
726.8692,-5106.5682,0.0000,-2.8944,22.1294,0
725.7933,-5106.8413,0.0000,-2.8946,22.3798,0
724.8200,-5107.0815,0.0000,-2.8948,22.6143,0
722.3012,-5107.7038,0.0000,-2.8956,23.3178,0
721.2253,-5107.9768,0.0000,-2.8958,23.5842,0
720.1324,-5108.2498,0.0000,-2.8958,23.8480,0
719.1590,-5108.4900,0.0000,-2.8960,24.0611,0
718.1771,-5108.7301,0.0000,-2.8962,24.2503,0
717.1269,-5108.9922,0.0000,-2.8963,24.4555,0
716.0596,-5109.2653,0.0000,-2.8965,24.7566,0
714.9838,-5109.5272,0.0000,-2.8962,24.9538,0
713.9677,-5109.7783,0.0000,-2.8954,25.1350,0
712.9517,-5110.0294,0.0000,-2.8950,25.3322,0
710.8598,-5110.5536,0.0000,-2.8937,25.8012,0
709.8181,-5110.8156,0.0000,-2.8931,25.9719,0
708.8277,-5111.0558,0.0000,-2.8925,26.1530,0
707.7689,-5111.3289,0.0000,-2.8919,26.3503,0
706.7699,-5111.5800,0.0000,-2.8916,26.5424,0
705.6940,-5111.8531,0.0000,-2.8912,26.5609,0
704.6865,-5112.1042,0.0000,-2.8906,26.5263,0
703.6192,-5112.3773,0.0000,-2.8902,26.3211,0
702.6372,-5112.6285,0.0000,-2.8896,25.9243,0
699.9390,-5113.3167,0.0000,-2.8889,23.8699,0
698.8718,-5113.5787,0.0000,-2.8887,22.8837,0
697.8983,-5113.8299,0.0000,-2.8883,21.9781,0
696.8566,-5114.1031,0.0000,-2.8881,20.8669,0
695.8747,-5114.3544,0.0000,-2.8879,19.6731,0
694.8501,-5114.6054,0.0000,-2.8881,18.3489,0
693.7998,-5114.8786,0.0000,-2.8889,16.8778,0
691.7250,-5115.3917,0.0000,-2.9021,13.7521,0
690.7432,-5115.6207,0.0000,-2.9146,12.0810,0
689.7613,-5115.8498,0.0000,-2.9305,10.4033,0
688.7796,-5116.0455,0.0000,-2.9585,9.2783,0
687.2006,-5116.2832,0.0000,-3.0333,8.8445,0
686.1767,-5116.3678,0.0000,-3.0837,8.8049,0
685.1275,-5116.3967,0.0000,-3.1376,8.7013,0
684.1040,-5116.3814,0.0000,3.0996,8.7197,0
683.0892,-5116.3328,0.0000,3.0871,8.6372,0
682.0743,-5116.2843,0.0000,3.1055,8.7827,0
681.0424,-5116.2578,0.0000,3.1404,9.1846,0
679.9846,-5116.2756,0.0000,-3.1029,9.8407,0
678.7902,-5116.3484,0.0000,-3.0572,10.7066,0
677.7748,-5116.4441,0.0000,-3.0198,11.3907,0
676.7677,-5116.5732,0.0000,-2.9844,12.0924,0
675.7435,-5116.7465,0.0000,-2.9537,12.8223,0
674.7447,-5116.9533,0.0000,-2.9343,13.4910,0
673.3019,-5117.2581,0.0000,-2.9284,14.3951,0
672.2603,-5117.5091,0.0000,-2.8963,15.0469,0
671.2698,-5117.7603,0.0000,-2.8843,15.5969,0
670.2452,-5118.0225,0.0000,-2.8756,16.1243,0
669.2375,-5118.2958,0.0000,-2.8682,16.5805,0
668.2469,-5118.5803,0.0000,-2.8620,17.0210,0
667.2307,-5118.8758,0.0000,-2.8563,17.4547,0
665.7533,-5119.3025,0.0000,-2.8522,18.0532,0
664.7797,-5119.5871,0.0000,-2.8515,18.4184,0
663.7891,-5119.8827,0.0000,-2.8505,18.7520,0
662.7899,-5120.1783,0.0000,-2.8498,19.0708,0
661.7566,-5120.4848,0.0000,-2.8492,19.4213,0
660.7147,-5120.7913,0.0000,-2.8486,19.7654,0
658.2978,-5121.5139,0.0000,-2.8476,20.5157,0
657.3072,-5121.8094,0.0000,-2.8480,20.8114,0
656.2994,-5122.1161,0.0000,-2.8486,21.0723,0
655.2917,-5122.4116,0.0000,-2.8490,21.3091,0
654.2584,-5122.7181,0.0000,-2.8496,21.5774,0
653.2164,-5123.0357,0.0000,-2.8499,21.8300,0
652.2258,-5123.3313,0.0000,-2.8505,22.0467,0
651.1583,-5123.6488,0.0000,-2.8515,22.3182,0
650.0822,-5123.9662,0.0000,-2.8522,22.5624,0
648.2034,-5124.5134,0.0000,-2.8540,22.9845,0
647.2128,-5124.7979,0.0000,-2.8551,23.1991,0
646.1624,-5125.1043,0.0000,-2.8561,23.3992,0
645.1632,-5125.3999,0.0000,-2.8570,23.5530,0
644.1470,-5125.6954,0.0000,-2.8582,23.7520,0
643.0710,-5126.0017,0.0000,-2.8590,23.9269,0
642.0377,-5126.2971,0.0000,-2.8599,24.1652,0
641.0642,-5126.5706,0.0000,-2.8609,24.3357,0
640.0906,-5126.8552,0.0000,-2.8618,24.5167,0
638.0411,-5127.4350,0.0000,-2.8639,24.8562,0
637.0506,-5127.7084,0.0000,-2.8647,25.0177,0
636.0429,-5127.9928,0.0000,-2.8653,25.1822,0
634.9584,-5128.2991,0.0000,-2.8653,25.3316,0
633.8739,-5128.6054,0.0000,-2.8655,25.4885,0
632.7808,-5128.9117,0.0000,-2.8649,25.6349,0
631.7475,-5129.1960,0.0000,-2.8641,25.7933,0
630.7142,-5129.4914,0.0000,-2.8632,25.9563,0
629.7407,-5129.7649,0.0000,-2.8622,26.0937,0
628.7587,-5130.0383,0.0000,-2.8611,26.2311,0
626.4445,-5130.6947,0.0000,-2.8588,26.2674,0
625.3941,-5131.0011,0.0000,-2.8582,26.1650,0
624.4205,-5131.2857,0.0000,-2.8576,26.0249,0
623.3787,-5131.5811,0.0000,-2.8578,25.8240,0
622.2856,-5131.8984,0.0000,-2.8578,25.5327,0
621.2693,-5132.1939,0.0000,-2.8580,25.1991,0
620.2019,-5132.5003,0.0000,-2.8580,24.8731,0
619.1429,-5132.8067,0.0000,-2.8582,24.5035,0
618.1694,-5133.0801,0.0000,-2.8582,24.1713,0
615.3342,-5133.9009,0.0000,-2.8582,23.1135,0
614.2923,-5134.1963,0.0000,-2.8582,22.7347,0
613.2164,-5134.5026,0.0000,-2.8580,22.2820,0
612.1489,-5134.8090,0.0000,-2.8580,21.9212,0
611.1070,-5135.1154,0.0000,-2.8580,21.5002,0
610.0822,-5135.4109,0.0000,-2.8578,21.0898,0
609.0831,-5135.6953,0.0000,-2.8576,20.6961,0
608.1010,-5135.9799,0.0000,-2.8578,20.2658,0
606.1796,-5136.5269,0.0000,-2.8580,19.4871,0
605.1548,-5136.8223,0.0000,-2.8580,19.0494,0
604.1471,-5137.1178,0.0000,-2.8580,18.6420,0
603.1650,-5137.3913,0.0000,-2.8578,18.2602,0
602.1915,-5137.6758,0.0000,-2.8578,17.9346,0
601.1497,-5137.9712,0.0000,-2.8582,17.5628,0
600.1249,-5138.2666,0.0000,-2.8582,17.2340,0
598.1095,-5138.8466,0.0000,-2.8580,16.5446,0
597.1445,-5139.1312,0.0000,-2.8580,16.2668,0
596.1112,-5139.4266,0.0000,-2.8582,15.9711,0
595.0949,-5139.7221,0.0000,-2.8580,15.6902,0
594.0958,-5140.0065,0.0000,-2.8580,15.4459,0
593.1137,-5140.2910,0.0000,-2.8580,15.2240,0
591.8327,-5140.6631,0.0000,-2.8580,14.9010,0
590.7994,-5140.9585,0.0000,-2.8580,14.6821,0
589.8344,-5141.2320,0.0000,-2.8580,14.4738,0
588.8353,-5141.5165,0.0000,-2.8580,14.2581,0
587.8190,-5141.8119,0.0000,-2.8582,14.0590,0
586.8199,-5142.0964,0.0000,-2.8584,13.8823,0
585.5304,-5142.4684,0.0000,-2.8582,13.7193,0
584.5483,-5142.7530,0.0000,-2.8580,13.5668,0
583.5406,-5143.0374,0.0000,-2.8582,13.4930,0
582.5414,-5143.3329,0.0000,-2.8582,13.3888,0
581.5423,-5143.6174,0.0000,-2.8580,13.3436,0
580.5602,-5143.9019,0.0000,-2.8580,13.2183,0
579.2280,-5144.2849,0.0000,-2.8580,12.8562,0
578.2117,-5144.5803,0.0000,-2.8578,11.7198,0
577.2468,-5144.8538,0.0000,-2.8578,10.2076,0
576.2647,-5145.1383,0.0000,-2.8576,8.2503,0
575.2912,-5145.4118,0.0000,-2.8574,5.2396,0
